Far field
"Frequency"[Hz]	"LHC [dBi]"	"RHC [dBi]"	
2.00000000E+09	6.35767490E+00	5.42125042E+00	
2.00500000E+09	6.43642560E+00	5.45428110E+00	
2.01000000E+09	6.51237209E+00	5.48219731E+00	
2.01500000E+09	6.58547423E+00	5.50480587E+00	
2.02000000E+09	6.65566676E+00	5.52193594E+00	
2.02500000E+09	6.72293717E+00	5.53342384E+00	
2.03000000E+09	6.78724055E+00	5.53909792E+00	
2.03500000E+09	6.84855239E+00	5.53881528E+00	
2.04000000E+09	6.90691558E+00	5.53243198E+00	
2.04500000E+09	6.96233448E+00	5.51981728E+00	
2.05000000E+09	7.01486891E+00	5.50083743E+00	
2.05500000E+09	7.06456596E+00	5.47538518E+00	
2.06000000E+09	7.11149382E+00	5.44337965E+00	
2.06500000E+09	7.15575203E+00	5.40469569E+00	
2.07000000E+09	7.19744684E+00	5.35926357E+00	
2.07500000E+09	7.23669237E+00	5.30699581E+00	
2.08000000E+09	7.27363886E+00	5.24780651E+00	
2.08500000E+09	7.30841023E+00	5.18164746E+00	
2.09000000E+09	7.34118634E+00	5.10848732E+00	
2.09500000E+09	7.37213203E+00	5.02822510E+00	
2.10000000E+09	7.40143437E+00	4.94084466E+00	
2.10500000E+09	7.42928569E+00	4.84626560E+00	
2.11000000E+09	7.45587116E+00	4.74442873E+00	
2.11500000E+09	7.48137532E+00	4.63533701E+00	
2.12000000E+09	7.50601629E+00	4.51889248E+00	
2.12500000E+09	7.52999949E+00	4.39502014E+00	
2.13000000E+09	7.55349601E+00	4.26369451E+00	
2.13500000E+09	7.57668609E+00	4.12473196E+00	
2.14000000E+09	7.59979671E+00	3.97814367E+00	
2.14500000E+09	7.62296214E+00	3.82381193E+00	
2.15000000E+09	7.64634753E+00	3.66159713E+00	
2.15500000E+09	7.67013221E+00	3.49142868E+00	
2.16000000E+09	7.69441061E+00	3.31309681E+00	
2.16500000E+09	7.71932592E+00	3.12645126E+00	
2.17000000E+09	7.74496099E+00	2.93134200E+00	
2.17500000E+09	7.77138076E+00	2.72753652E+00	
2.18000000E+09	7.79866109E+00	2.51491811E+00	
2.18500000E+09	7.82682335E+00	2.29318674E+00	
2.19000000E+09	7.85586226E+00	2.06217516E+00	
2.19500000E+09	7.88576644E+00	1.82162358E+00	
2.20000000E+09	7.91650248E+00	1.57132245E+00	
2.20500000E+09	7.94800060E+00	1.31089083E+00	
2.21000000E+09	7.98015501E+00	1.04033974E+00	
2.21500000E+09	8.01285787E+00	7.59305148E-01	
2.22000000E+09	8.04596818E+00	4.67649536E-01	
2.22500000E+09	8.07933657E+00	1.65299552E-01	
2.23000000E+09	8.11274258E+00	-1.47868991E-01	
2.23500000E+09	8.14600022E+00	-4.71727149E-01	
2.24000000E+09	8.17893732E+00	-8.06306994E-01	
2.24500000E+09	8.21123350E+00	-1.15094309E+00	
2.25000000E+09	8.24270896E+00	-1.50536571E+00	
2.25500000E+09	8.27307377E+00	-1.86867367E+00	
2.26000000E+09	8.30207187E+00	-2.23975619E+00	
2.26500000E+09	8.32942662E+00	-2.61699577E+00	
2.27000000E+09	8.35493682E+00	-2.99843302E+00	
2.27500000E+09	8.37823793E+00	-3.38148629E+00	
2.28000000E+09	8.39914776E+00	-3.76302612E+00	
2.28500000E+09	8.41743425E+00	-4.13899139E+00	
2.29000000E+09	8.43278657E+00	-4.50455041E+00	
2.29500000E+09	8.44508446E+00	-4.85466885E+00	
2.30000000E+09	8.45408448E+00	-5.18320388E+00	
2.30500000E+09	8.45961273E+00	-5.48428190E+00	
2.31000000E+09	8.46154275E+00	-5.75159844E+00	
2.31500000E+09	8.45974365E+00	-5.97948710E+00	
2.32000000E+09	8.45410433E+00	-6.16333719E+00	
2.32500000E+09	8.44457623E+00	-6.30006851E+00	
2.33000000E+09	8.43111180E+00	-6.38830432E+00	
2.33500000E+09	8.41366832E+00	-6.42927992E+00	
2.34000000E+09	8.39229817E+00	-6.42492436E+00	
2.34500000E+09	8.36701548E+00	-6.38009494E+00	
2.35000000E+09	8.33788893E+00	-6.29988163E+00	
2.35500000E+09	8.30496029E+00	-6.19035971E+00	
2.36000000E+09	8.26838523E+00	-6.05724606E+00	
2.36500000E+09	8.22823652E+00	-5.90681504E+00	
2.37000000E+09	8.18468266E+00	-5.74406540E+00	
2.37500000E+09	8.13785389E+00	-5.57385769E+00	
2.38000000E+09	8.08790299E+00	-5.39996371E+00	
2.38500000E+09	8.03500652E+00	-5.22581082E+00	
2.39000000E+09	7.97933540E+00	-5.05408956E+00	
2.39500000E+09	7.92108027E+00	-4.88659421E+00	
2.40000000E+09	7.86040998E+00	-4.72501708E+00	
2.40500000E+09	7.79745893E+00	-4.57046476E+00	
2.41000000E+09	7.73245938E+00	-4.42377526E+00	
2.41500000E+09	7.66558192E+00	-4.28537432E+00	
2.42000000E+09	7.59695568E+00	-4.15582898E+00	
2.42500000E+09	7.52679153E+00	-4.03506485E+00	
2.43000000E+09	7.45523130E+00	-3.92323799E+00	
2.43500000E+09	7.38242390E+00	-3.82031384E+00	
2.44000000E+09	7.30853537E+00	-3.72613242E+00	
2.44500000E+09	7.23368155E+00	-3.64046181E+00	
2.45000000E+09	7.15796702E+00	-3.56300853E+00	
2.45500000E+09	7.08154267E+00	-3.49374101E+00	
2.46000000E+09	7.00457664E+00	-3.43230621E+00	
2.46500000E+09	6.92705735E+00	-3.37836489E+00	
2.47000000E+09	6.84915288E+00	-3.33175736E+00	
2.47500000E+09	6.77089303E+00	-3.29217685E+00	
2.48000000E+09	6.69244655E+00	-3.25942025E+00	
2.48500000E+09	6.61374322E+00	-3.23314627E+00	
2.49000000E+09	6.53496048E+00	-3.21329347E+00	
2.49500000E+09	6.45608941E+00	-3.19958235E+00	
2.50000000E+09	6.37720315E+00	-3.19174765E+00	
2.50500000E+09	6.29830604E+00	-3.18977432E+00	
2.51000000E+09	6.21945847E+00	-3.19334172E+00	
2.51500000E+09	6.14063611E+00	-3.20243410E+00	
2.52000000E+09	6.06187636E+00	-3.21687194E+00	
2.52500000E+09	5.98314501E+00	-3.23660951E+00	
2.53000000E+09	5.90447752E+00	-3.26147835E+00	
2.53500000E+09	5.82583893E+00	-3.29145312E+00	
2.54000000E+09	5.74718616E+00	-3.32655779E+00	
2.54500000E+09	5.66853872E+00	-3.36663560E+00	
2.55000000E+09	5.58984021E+00	-3.41179825E+00	
2.55500000E+09	5.51102524E+00	-3.46202759E+00	
2.56000000E+09	5.43205743E+00	-3.51732536E+00	
2.56500000E+09	5.35286408E+00	-3.57781749E+00	
2.57000000E+09	5.27337818E+00	-3.64342949E+00	
2.57500000E+09	5.19356990E+00	-3.71437697E+00	
2.58000000E+09	5.11326904E+00	-3.79079805E+00	
2.58500000E+09	5.03241579E+00	-3.87285188E+00	
2.59000000E+09	4.95093538E+00	-3.96050124E+00	
2.59500000E+09	4.86867815E+00	-4.05415996E+00	
2.60000000E+09	4.78556978E+00	-4.15396318E+00	
2.60500000E+09	4.70138955E+00	-4.26013687E+00	
2.61000000E+09	4.61607833E+00	-4.37295302E+00	
2.61500000E+09	4.52944391E+00	-4.49282643E+00	
2.62000000E+09	4.44135576E+00	-4.61981057E+00	
2.62500000E+09	4.35161040E+00	-4.75448409E+00	
2.63000000E+09	4.26003420E+00	-4.89732566E+00	
2.63500000E+09	4.16645014E+00	-5.04854641E+00	
2.64000000E+09	4.07059780E+00	-5.20887141E+00	
2.64500000E+09	3.97238919E+00	-5.37839771E+00	
2.65000000E+09	3.87143217E+00	-5.55810157E+00	
2.65500000E+09	3.76763636E+00	-5.74847783E+00	
2.66000000E+09	3.66067476E+00	-5.95010939E+00	
2.66500000E+09	3.55027795E+00	-6.16379266E+00	
2.67000000E+09	3.43632015E+00	-6.39020964E+00	
2.67500000E+09	3.31845296E+00	-6.63040777E+00	
2.68000000E+09	3.19641885E+00	-6.88499400E+00	
2.68500000E+09	3.06987323E+00	-7.15536922E+00	
2.69000000E+09	2.93863722E+00	-7.44234734E+00	
2.69500000E+09	2.80239031E+00	-7.74718907E+00	
2.70000000E+09	2.66084703E+00	-8.07123258E+00	
