CharacteristicMode
"Frequency"[Hz]	"Mode index = 1  []"	"Mode index = 2  []"	"Mode index = 3  []"	"Mode index = 4  []"	"Mode index = 5  []"	"Mode index = 6  []"	
7.00000000E+08	-5.32230332E+00	6.23109866E+00	6.49721178E+01	-1.00272259E+02	-1.03418159E+02	1.59845259E+02	
7.05000000E+08	-4.96065112E+00	6.22661977E+00	6.30627278E+01	-9.01935397E+01	-9.78269652E+01	1.73402667E+02	
7.10000000E+08	-4.61506622E+00	6.21978061E+00	6.12265116E+01	-8.09550823E+01	-9.25593782E+01	1.86459770E+02	
7.15000000E+08	-4.28472810E+00	6.21076803E+00	5.94602406E+01	-7.25910047E+01	-8.75947886E+01	1.98470086E+02	
7.20000000E+08	-3.96884859E+00	6.19976821E+00	5.77606805E+01	-6.51000474E+01	-8.29141448E+01	2.09022446E+02	
7.25000000E+08	-3.66668779E+00	6.18691759E+00	5.61247402E+01	-5.84473407E+01	-7.84997004E+01	2.17854822E+02	
7.30000000E+08	-3.37754450E+00	6.17238585E+00	5.45496078E+01	-5.25737166E+01	-7.43348734E+01	2.24882680E+02	
7.35000000E+08	-3.10076554E+00	6.15631168E+00	5.30325371E+01	-4.74052215E+01	-7.04041847E+01	2.30140532E+02	
7.40000000E+08	-2.83571936E+00	6.13882355E+00	5.15709891E+01	-4.28614264E+01	-6.66932981E+01	2.33733331E+02	
7.45000000E+08	-2.58182651E+00	6.12003776E+00	5.01624938E+01	-3.88648329E+01	-6.31887969E+01	2.35826412E+02	
7.50000000E+08	-2.33852261E+00	6.10007769E+00	4.88047428E+01	-3.53429650E+01	-5.98781306E+01	2.36598548E+02	
7.55000000E+08	-2.10528445E+00	6.07904560E+00	4.74954638E+01	-3.22310938E+01	-5.67496004E+01	2.36226868E+02	
7.60000000E+08	-1.88160709E+00	6.05705188E+00	4.62326855E+01	-2.94727734E+01	-5.37922551E+01	2.34886885E+02	
7.65000000E+08	-1.66703043E+00	6.03417427E+00	4.50142988E+01	-2.70192953E+01	-5.09959144E+01	2.32735263E+02	
7.70000000E+08	-1.46109664E+00	6.01050508E+00	4.38384896E+01	-2.48291079E+01	-4.83510543E+01	2.29908829E+02	
7.75000000E+08	-1.26339614E+00	5.98613594E+00	4.27034551E+01	-2.28668340E+01	-4.58486853E+01	2.26538302E+02	
7.80000000E+08	-1.07351901E+00	5.96113480E+00	4.16074370E+01	-2.11025454E+01	-4.34804721E+01	2.22725686E+02	
7.85000000E+08	-8.91096332E-01	5.93557191E+00	4.05488440E+01	-1.95108225E+01	-4.12386168E+01	2.18564212E+02	
7.90000000E+08	-7.15767964E-01	5.90952263E+00	3.95261401E+01	-1.80700015E+01	-3.91157733E+01	2.14132797E+02	
7.95000000E+08	-5.47192736E-01	5.88304594E+00	3.85378312E+01	-1.67617491E+01	-3.71050566E+01	2.09499706E+02	
8.00000000E+08	-3.85057298E-01	5.85619521E+00	3.75825089E+01	-1.55703648E+01	-3.52000682E+01	2.04718919E+02	
8.05000000E+08	-2.29055801E-01	5.82903197E+00	3.66588626E+01	-1.44823594E+01	-3.33947820E+01	1.99841619E+02	
8.10000000E+08	-7.89042191E-02	5.80161395E+00	3.57656143E+01	-1.34861462E+01	-3.16835239E+01	1.94905981E+02	
8.15000000E+08	6.56715749E-02	5.77397719E+00	3.49015103E+01	-1.25717338E+01	-3.00609848E+01	1.89943543E+02	
8.20000000E+08	2.04920471E-01	5.74617489E+00	3.40654391E+01	-1.17304640E+01	-2.85222027E+01	1.84985000E+02	
8.25000000E+08	3.39084416E-01	5.71824338E+00	3.32562852E+01	-1.09548573E+01	-2.70625002E+01	1.80053361E+02	
8.30000000E+08	4.68391661E-01	5.69022794E+00	3.24729764E+01	-1.02383034E+01	-2.56774799E+01	1.75165299E+02	
8.35000000E+08	5.93061611E-01	5.66216605E+00	3.17145257E+01	-9.57503776E+00	-2.43630000E+01	1.70338847E+02	
8.40000000E+08	7.13293958E-01	5.63409151E+00	3.09799766E+01	-8.96004016E+00	-2.31152101E+01	1.65585219E+02	
8.45000000E+08	8.29277503E-01	5.60603266E+00	3.02683965E+01	-8.38881248E+00	-2.19304423E+01	1.60914548E+02	
8.50000000E+08	9.41191360E-01	5.57802379E+00	2.95789051E+01	-7.85743554E+00	-2.08052793E+01	1.56335179E+02	
8.55000000E+08	1.04921425E+00	5.55009924E+00	2.89106950E+01	-7.36240797E+00	-1.97364862E+01	1.51854230E+02	
8.60000000E+08	1.15349352E+00	5.52227247E+00	2.82629267E+01	-6.90059692E+00	-1.87210312E+01	1.47474729E+02	
8.65000000E+08	1.25419359E+00	5.49458568E+00	2.76348644E+01	-6.46919407E+00	-1.77560493E+01	1.43201186E+02	
8.70000000E+08	1.35144930E+00	5.46705310E+00	2.70257859E+01	-6.06573155E+00	-1.68388504E+01	1.39035454E+02	
8.75000000E+08	1.44539763E+00	5.43969893E+00	2.64349511E+01	-5.68795685E+00	-1.59668922E+01	1.34978882E+02	
8.80000000E+08	1.53616338E+00	5.41253812E+00	2.58617134E+01	-5.33384752E+00	-1.51377947E+01	1.31032324E+02	
8.85000000E+08	1.62387488E+00	5.38560570E+00	2.53054381E+01	-5.00156690E+00	-1.43492939E+01	1.27195593E+02	
8.90000000E+08	1.70862690E+00	5.35890318E+00	2.47654998E+01	-4.68949799E+00	-1.35992732E+01	1.23468598E+02	
8.95000000E+08	1.79054262E+00	5.33245779E+00	2.42413024E+01	-4.39611191E+00	-1.28857167E+01	1.19849938E+02	
9.00000000E+08	1.86971184E+00	5.30628723E+00	2.37323046E+01	-4.12006253E+00	-1.22067396E+01	1.16338481E+02	
9.05000000E+08	1.94623577E+00	5.28040387E+00	2.32379680E+01	-3.86010081E+00	-1.15605517E+01	1.12932613E+02	
9.10000000E+08	2.02020407E+00	5.25482405E+00	2.27577626E+01	-3.61509330E+00	-1.09454742E+01	1.09630286E+02	
9.15000000E+08	2.09169712E+00	5.22956055E+00	2.22911879E+01	-3.38400761E+00	-1.03599138E+01	1.06429683E+02	
9.20000000E+08	2.16079818E+00	5.20462923E+00	2.18377768E+01	-3.16589624E+00	-9.80236084E+00	1.03328480E+02	
9.25000000E+08	2.22758608E+00	5.18003605E+00	2.13970693E+01	-2.95988087E+00	-9.27140128E+00	1.00324219E+02	
9.30000000E+08	2.29212816E+00	5.15580252E+00	2.09686401E+01	-2.76516097E+00	-8.76568761E+00	9.74149017E+01	
9.35000000E+08	2.35450317E+00	5.13192968E+00	2.05520447E+01	-2.58099599E+00	-8.28395422E+00	9.45977031E+01	
9.40000000E+08	2.41477054E+00	5.10844489E+00	2.01469086E+01	-2.40670616E+00	-7.82499695E+00	9.18704080E+01	
9.45000000E+08	2.47299627E+00	5.08534283E+00	1.97528349E+01	-2.24166425E+00	-7.38768069E+00	8.92303654E+01	
9.50000000E+08	2.52923649E+00	5.06263860E+00	1.93694445E+01	-2.08528892E+00	-6.97093504E+00	8.66751999E+01	
9.55000000E+08	2.58355977E+00	5.04033758E+00	1.89963735E+01	-1.93703611E+00	-6.57373914E+00	8.42020680E+01	
9.60000000E+08	2.63601655E+00	5.01846371E+00	1.86333129E+01	-1.79640909E+00	-6.19512834E+00	8.18087575E+01	
9.65000000E+08	2.68666681E+00	4.99701589E+00	1.82799078E+01	-1.66294022E+00	-5.83419580E+00	7.94928693E+01	
9.70000000E+08	2.73554983E+00	4.97599522E+00	1.79358315E+01	-1.53621008E+00	-5.49007446E+00	7.72517926E+01	
9.75000000E+08	2.78273654E+00	4.95542728E+00	1.76008096E+01	-1.41580228E+00	-5.16194752E+00	7.50831602E+01	
9.80000000E+08	2.82826244E+00	4.93530740E+00	1.72745281E+01	-1.30135533E+00	-4.84904020E+00	7.29847772E+01	
9.85000000E+08	2.87217652E+00	4.91564656E+00	1.69567070E+01	-1.19251901E+00	-4.55062135E+00	7.09542331E+01	
9.90000000E+08	2.91453396E+00	4.89646254E+00	1.66470950E+01	-1.08896744E+00	-4.26598400E+00	6.89893942E+01	
9.95000000E+08	2.95537315E+00	4.87775100E+00	1.63454071E+01	-9.90399442E-01	-3.99447823E+00	6.70880038E+01	
1.00000000E+09	2.99474476E+00	4.85952111E+00	1.60514008E+01	-8.96533069E-01	-3.73547263E+00	6.52480032E+01	
1.00500000E+09	3.03268678E+00	4.84178956E+00	1.57648487E+01	-8.07103846E-01	-3.48837252E+00	6.34673157E+01	
1.01000000E+09	3.06924360E+00	4.82456080E+00	1.54855043E+01	-7.21865900E-01	-3.25261282E+00	6.17438910E+01	
1.01500000E+09	3.10445974E+00	4.80783653E+00	1.52131450E+01	-6.40587306E-01	-3.02766514E+00	6.00758584E+01	
1.02000000E+09	3.13837498E+00	4.79163421E+00	1.49475583E+01	-5.63051869E-01	-2.81301182E+00	5.84612917E+01	
1.02500000E+09	3.17102765E+00	4.77595231E+00	1.46885324E+01	-4.89055979E-01	-2.60817661E+00	5.68983667E+01	
1.03000000E+09	3.20245397E+00	4.76080464E+00	1.44358711E+01	-4.18412110E-01	-2.41269755E+00	5.53852700E+01	
1.03500000E+09	3.23269985E+00	4.74620218E+00	1.41893889E+01	-3.50937535E-01	-2.22613998E+00	5.39204048E+01	
1.04000000E+09	3.26179637E+00	4.73214546E+00	1.39488859E+01	-2.86469074E-01	-2.04809138E+00	5.25019900E+01	
1.04500000E+09	3.28978372E+00	4.71865279E+00	1.37141979E+01	-2.24845455E-01	-1.87815596E+00	5.11284887E+01	
1.05000000E+09	3.31669492E+00	4.70572581E+00	1.34851476E+01	-1.65922089E-01	-1.71596146E+00	4.97983666E+01	
1.05500000E+09	3.34257029E+00	4.69337917E+00	1.32615664E+01	-1.09555001E-01	-1.56115151E+00	4.85100852E+01	
1.06000000E+09	3.36743734E+00	4.68161572E+00	1.30432980E+01	-5.56159558E-02	-1.41338890E+00	4.72622347E+01	
1.06500000E+09	3.39133506E+00	4.67045125E+00	1.28301784E+01	-3.97967799E-03	-1.27235145E+00	4.60534350E+01	
1.07000000E+09	3.41429367E+00	4.65989056E+00	1.26220700E+01	4.54685672E-02	-1.13773349E+00	4.48822525E+01	
1.07500000E+09	3.43634578E+00	4.64994612E+00	1.24188202E+01	9.28406334E-02	-1.00924406E+00	4.37474586E+01	
1.08000000E+09	3.45752881E+00	4.64063281E+00	1.22203054E+01	1.38241908E-01	-8.86604356E-01	4.26478151E+01	
1.08500000E+09	3.47785680E+00	4.63195131E+00	1.20263678E+01	1.81767108E-01	-7.69552938E-01	4.15820719E+01	
1.09000000E+09	3.49737835E+00	4.62392724E+00	1.18369048E+01	2.23512611E-01	-6.57835930E-01	4.05490952E+01	
1.09500000E+09	3.51611451E+00	4.61656346E+00	1.16517800E+01	2.63565359E-01	-5.51216149E-01	3.95477502E+01	
1.10000000E+09	3.53409264E+00	4.60987470E+00	1.14708722E+01	3.02008999E-01	-4.49464422E-01	3.85769343E+01	
1.10500000E+09	3.55134498E+00	4.60387193E+00	1.12940676E+01	3.38922701E-01	-3.52364540E-01	3.76356198E+01	
1.11000000E+09	3.56788924E+00	4.59856531E+00	1.11212490E+01	3.74380452E-01	-2.59710866E-01	3.67228019E+01	
1.11500000E+09	3.58376486E+00	4.59397840E+00	1.09523221E+01	4.08455964E-01	-1.71303842E-01	3.58375027E+01	
1.12000000E+09	3.59898624E+00	4.59011978E+00	1.07871721E+01	4.41215225E-01	-8.69566371E-02	3.49788016E+01	
1.12500000E+09	3.61358196E+00	4.58700432E+00	1.06257072E+01	4.72723285E-01	-6.49056043E-03	3.41457662E+01	
1.13000000E+09	3.62757950E+00	4.58464622E+00	1.04678224E+01	5.03043317E-01	7.02659950E-02	3.33375504E+01	
1.13500000E+09	3.64100148E+00	4.58306726E+00	1.03134354E+01	5.32232772E-01	1.43475885E-01	3.25533099E+01	
1.14000000E+09	3.65386614E+00	4.58227991E+00	1.01624465E+01	5.60348791E-01	2.13294104E-01	3.17922473E+01	
1.14500000E+09	3.66619863E+00	4.58229869E+00	1.00147753E+01	5.87443952E-01	2.79867726E-01	3.10535786E+01	
1.15000000E+09	3.67802110E+00	4.58314614E+00	9.87033969E+00	6.13571379E-01	3.43340540E-01	3.03365609E+01	
1.15500000E+09	3.68935085E+00	4.58484073E+00	9.72906100E+00	6.38778800E-01	4.03845672E-01	2.96404446E+01	
1.16000000E+09	3.70021274E+00	4.58739877E+00	9.59086076E+00	6.63115970E-01	4.61513205E-01	2.89645657E+01	
1.16500000E+09	3.71062455E+00	4.59084513E+00	9.45566969E+00	6.86627403E-01	5.16465421E-01	2.83082274E+01	
1.17000000E+09	3.72060000E+00	4.59519137E+00	9.32341366E+00	7.09356553E-01	5.68818604E-01	2.76707973E+01	
1.17500000E+09	3.73016515E+00	4.60046339E+00	9.19402782E+00	7.31348287E-01	6.18686443E-01	2.70516512E+01	
1.18000000E+09	3.73933116E+00	4.60668240E+00	9.06745185E+00	7.52642109E-01	6.66174405E-01	2.64501812E+01	
1.18500000E+09	3.74811692E+00	4.61386938E+00	8.94362297E+00	7.73280718E-01	7.11386343E-01	2.58658202E+01	
1.19000000E+09	3.75654027E+00	4.62204382E+00	8.82248456E+00	7.93303746E-01	7.54414982E-01	2.52979926E+01	
1.19500000E+09	3.76461169E+00	4.63123177E+00	8.70398662E+00	8.12761484E-01	7.95342219E-01	2.47461692E+01	
1.20000000E+09	3.77235353E+00	4.64144645E+00	8.58807352E+00	8.31371720E-01	8.34576668E-01	2.42098220E+01	
